Tiempo [min] Absorbancia
0	1.475
5	1.382
10	1.307
15	1.230
20	1.166
25	1.093
30	1.014
35	0.904
40	0.856
45	0.791
50	0.741	
55	0.649
60	0.597
65	0.548
70	0.502	
75	0.468
80	0.438
85	0.367
90	0.356
95	0.340
100	0.286
105	0.276
110	0.246
115	0.230
120	0.207
125	0.200
130	0.171
135	0.151
140	0.143