Tiempo [min]	Absorbancia
0	1.582
5	1.503
10	1.400
15	1.300
20	1.230
25	1.149
30	1.071
35	1.008
40	0.942
45	0.875
50	0.808
55	0.782
60	0.712
65	0.657
70	0.617
75	0.574
80	0.545
85	0.485
90	0.454
95	0.404
100	0.371
105	0.343
110	0.329
115	0.289
120	0.258
125	0.255
130	0.218
135	0.204
140	0.186

