Wavelength nm.	RawData ...	RawData ...	RawData ...	RawData ...	RawData ...
200.00	-3.464752	0.022446	3.928497	3.951202	3.930099
201.00	-3.249863	-1.463608	3.912064	3.905655	3.944260
202.00	-2.208801	-0.964355	3.885422	3.961334	3.959946
203.00	-1.352585	-1.281662	3.932144	3.974060	3.963104
204.00	-2.639221	-0.891037	3.907593	3.881012	3.978836
205.00	-2.010361	-0.705566	3.936798	3.943817	3.913864
206.00	-1.333496	-1.305435	3.929443	3.976532	3.977585
207.00	-1.115005	-0.962250	3.845657	3.987732	3.934937
208.00	-0.711548	-0.523117	3.907364	4.000000	3.962051
209.00	-1.646729	-0.780380	3.939926	3.934509	3.987061
210.00	-0.526489	-2.138306	3.966736	3.944504	3.945282
211.00	-2.498795	-3.472488	3.974335	3.974777	3.967514
212.00	-0.877869	0.254211	3.984909	3.988266	3.983582
213.00	-2.650314	-0.884262	3.992264	4.000000	3.957092
214.00	-2.476181	-0.953171	3.993240	3.990417	3.997025
215.00	-2.453812	-1.276520	3.922699	3.990631	3.998016
216.00	-0.926315	-1.451767	3.888580	3.992859	3.957748
217.00	-0.978989	-0.727692	3.956329	4.000000	3.987793
218.00	-0.796051	0.170135	3.970612	4.000000	3.983261
219.00	-1.519104	-2.305130	3.995926	3.986923	3.992523
220.00	-1.056702	-1.345901	3.957779	3.994812	3.987671
221.00	-1.624832	-1.910355	3.943161	3.993607	3.984711
222.00	-2.436768	-1.505005	3.969803	3.979996	3.993820
223.00	-2.663757	-0.022461	3.960068	3.990616	3.966843
224.00	-1.437393	-1.735626	3.978638	3.992630	3.982269
225.00	-2.239532	-0.671295	3.969574	3.981415	4.000000
226.00	-2.256729	-0.757034	3.989334	4.000000	3.988495
227.00	-0.571198	-2.467163	3.977661	3.968063	3.970428
228.00	-1.358322	-1.164108	3.992065	3.993042	3.968933
229.00	-0.527481	-0.247177	3.976563	3.997787	3.965866
230.00	-2.470810	-1.607712	3.926788	3.996490	3.988647
231.00	-0.473099	-1.049011	3.964874	4.000000	4.000000
232.00	-1.926666	-1.733475	3.987732	3.998520	3.990234
233.00	-1.283813	0.363083	3.972122	4.000000	3.985641
234.00	-1.710297	-0.179214	3.974518	4.000000	4.000000
235.00	-0.342453	-0.555740	3.983704	3.984772	4.000000
236.00	-2.545273	2.158859	3.987854	4.000000	3.991760
237.00	-1.397766	-0.370270	3.946365	3.997284	4.000000
238.00	-0.256622	-2.079529	4.000000	3.997131	3.990433
239.00	-1.286163	0.078766	3.973846	3.986877	3.978394
240.00	-0.173019	-1.155685	3.993851	3.998581	3.982925
241.00	-1.389236	0.539810	3.971451	4.000000	3.993683
242.00	-0.540955	1.087296	3.950928	3.978500	3.991348
243.00	0.052353	-0.724777	3.935577	3.997955	3.967499
244.00	-0.978973	-0.108734	3.947495	3.982651	4.000000
245.00	-0.882553	-0.687805	3.960266	3.987381	4.000000
246.00	0.664093	-1.419891	3.965683	4.000000	3.975189
247.00	-1.738037	-0.973709	3.950775	3.980652	3.981049
248.00	-1.401550	0.663040	3.911636	3.978043	3.944199
249.00	-0.627106	0.380768	3.910370	3.942932	3.963287
250.00	-0.036407	0.598145	3.790894	3.818604	3.911423
251.00	-0.118073	0.003082	3.490753	3.444443	3.690323
252.00	-0.146210	0.022339	3.037949	3.044891	3.292221
253.00	-0.136246	-0.003021	2.629578	2.642883	2.852249
254.00	-0.123856	-0.000381	2.319748	2.326797	2.546906
255.00	-0.113098	0.007904	2.075806	2.085068	2.289459
256.00	-0.100998	0.014999	1.870300	1.885300	2.077087
257.00	-0.087082	0.021942	1.707703	1.725784	1.907974
258.00	-0.073715	0.028275	1.573837	1.596161	1.763794
259.00	-0.058716	0.036179	1.460632	1.488968	1.643875
260.00	-0.044388	0.042923	1.361359	1.398804	1.536407
261.00	-0.030380	0.051620	1.270645	1.319046	1.441055
262.00	-0.016342	0.060257	1.188263	1.245697	1.352554
263.00	-0.000916	0.069870	1.113663	1.179855	1.273010
264.00	0.013657	0.079437	1.044739	1.120514	1.199585
265.00	0.029129	0.090012	0.978775	1.065826	1.129166
266.00	0.044189	0.101028	0.917740	1.016403	1.063904
267.00	0.059479	0.111908	0.861542	0.970703	1.002106
268.00	0.074097	0.123230	0.812164	0.931870	0.947830
269.00	0.089188	0.135330	0.764023	0.896835	0.896011
270.00	0.103745	0.147095	0.720627	0.866058	0.848785
271.00	0.117798	0.158997	0.680603	0.838165	0.805298
272.00	0.132385	0.171082	0.643173	0.812881	0.765121
273.00	0.146851	0.183395	0.608719	0.790710	0.728439
274.00	0.160797	0.195740	0.576920	0.771423	0.694244
275.00	0.175186	0.208328	0.547073	0.754242	0.662140
276.00	0.189636	0.221756	0.518875	0.738739	0.630692
277.00	0.203094	0.234268	0.493866	0.725632	0.603149
278.00	0.215714	0.246048	0.470886	0.714706	0.578369
279.00	0.228241	0.258026	0.449203	0.705154	0.554871
280.00	0.239609	0.268997	0.429413	0.696671	0.533386
281.00	0.250931	0.279602	0.411163	0.689468	0.514175
282.00	0.261475	0.289841	0.394714	0.683304	0.496490
283.00	0.271759	0.300323	0.378326	0.677261	0.478622
284.00	0.281570	0.310333	0.363068	0.672012	0.462082
285.00	0.290756	0.319504	0.349350	0.667435	0.447174
286.00	0.300476	0.329376	0.334976	0.662949	0.431625
287.00	0.310059	0.339249	0.320908	0.658997	0.416748
288.00	0.318817	0.348160	0.308258	0.655472	0.403168
289.00	0.328308	0.357803	0.295486	0.652328	0.389481
290.00	0.337784	0.367538	0.282333	0.649353	0.375412
291.00	0.346909	0.376724	0.270950	0.647125	0.362885
292.00	0.355988	0.385773	0.260437	0.645584	0.351334
293.00	0.365311	0.395554	0.249466	0.644104	0.339340
294.00	0.375092	0.405396	0.238571	0.643295	0.327881
295.00	0.366760	0.394791	0.224701	0.618591	0.309113
296.00	0.355225	0.381668	0.210052	0.591339	0.291092
297.00	0.367371	0.393829	0.202835	0.596466	0.283524
298.00	0.379044	0.404083	0.195862	0.599136	0.275757
299.00	0.387314	0.415192	0.188004	0.602509	0.268204
300.00	0.396347	0.424408	0.181656	0.605545	0.261078
301.00	0.405960	0.433945	0.174881	0.608185	0.254364
302.00	0.415237	0.440842	0.169159	0.609665	0.248657
303.00	0.423340	0.450378	0.162949	0.613190	0.242569
304.00	0.430923	0.458954	0.156921	0.616623	0.236816
305.00	0.438400	0.465256	0.151321	0.616791	0.230469
306.00	0.466354	0.496750	0.148499	0.643188	0.228073
307.00	0.475159	0.506912	0.143188	0.649719	0.222549
308.00	0.481461	0.511566	0.137955	0.649704	0.217499
309.00	0.485123	0.515305	0.132690	0.646866	0.211792
310.00	0.490173	0.520172	0.129395	0.647781	0.207764
311.00	0.494873	0.523071	0.125244	0.647324	0.203842
312.00	0.497345	0.524796	0.121857	0.646149	0.199249
313.00	0.497513	0.525894	0.117752	0.645294	0.195557
314.00	0.498322	0.526047	0.115234	0.641296	0.192001
315.00	0.500137	0.526733	0.112366	0.637589	0.189682
316.00	0.496826	0.523911	0.109528	0.634003	0.186584
317.00	0.494232	0.518982	0.106720	0.626678	0.183411
318.00	0.489136	0.514923	0.104553	0.618652	0.180984
319.00	0.483566	0.507675	0.102661	0.609253	0.178757
320.00	0.474655	0.498398	0.101059	0.598389	0.176620
321.00	0.465408	0.487656	0.098755	0.585434	0.174606
322.00	0.452377	0.474503	0.096619	0.570007	0.172165
323.00	0.438065	0.458435	0.094986	0.553558	0.170151
324.00	0.421860	0.441208	0.092926	0.534943	0.168091
325.00	0.404755	0.422943	0.091675	0.514175	0.166611
326.00	0.385605	0.402222	0.089966	0.492447	0.164703
327.00	0.364426	0.380600	0.088745	0.468918	0.163086
328.00	0.343338	0.358612	0.086945	0.445724	0.161026
329.00	0.322540	0.336670	0.085815	0.422211	0.159424
330.00	0.301926	0.314819	0.084808	0.399490	0.158020
331.00	0.281540	0.293777	0.083450	0.377350	0.156662
332.00	0.261703	0.273285	0.082138	0.355515	0.154770
333.00	0.242294	0.252945	0.081131	0.333939	0.153641
334.00	0.223648	0.233612	0.080093	0.313141	0.152328
335.00	0.206772	0.216095	0.079285	0.294556	0.151443
336.00	0.188675	0.197021	0.078613	0.274933	0.150101
337.00	0.170364	0.178040	0.077301	0.254807	0.148361
338.00	0.153732	0.160477	0.076355	0.236801	0.147186
339.00	0.138260	0.143753	0.075638	0.219437	0.146088
340.00	0.122894	0.127487	0.074844	0.202347	0.144653
341.00	0.108963	0.113052	0.074310	0.186859	0.143860
342.00	0.096619	0.100494	0.072998	0.173401	0.142441
343.00	0.086044	0.089310	0.072693	0.161560	0.141525
344.00	0.076294	0.079132	0.071884	0.150650	0.140762
345.00	0.067902	0.070496	0.070969	0.141495	0.139389
346.00	0.061264	0.063309	0.070618	0.134048	0.138336
347.00	0.055466	0.057190	0.070129	0.127136	0.137512
348.00	0.050507	0.052170	0.069382	0.121201	0.136429
349.00	0.046478	0.047928	0.068542	0.116516	0.135483
350.00	0.043335	0.044449	0.068237	0.112869	0.134903
351.00	0.040558	0.041718	0.067444	0.109329	0.133972
352.00	0.038620	0.039658	0.067291	0.106903	0.133362
353.00	0.036972	0.037796	0.066910	0.104614	0.132721
354.00	0.035477	0.036499	0.066544	0.102814	0.132050
355.00	0.034286	0.035172	0.065979	0.101074	0.131287
356.00	0.033463	0.034225	0.065552	0.099731	0.130676
357.00	0.032700	0.033340	0.065063	0.098358	0.130142
358.00	0.031967	0.032425	0.064713	0.097290	0.129379
359.00	0.031616	0.032150	0.064529	0.096527	0.128922
360.00	0.031204	0.031677	0.064285	0.095764	0.128464
361.00	0.030685	0.031204	0.063843	0.094864	0.127701
362.00	0.030411	0.030975	0.063553	0.094116	0.127411
363.00	0.029984	0.030502	0.062988	0.093323	0.126556
364.00	0.029816	0.030304	0.062759	0.092896	0.126221
365.00	0.029434	0.029877	0.062500	0.092239	0.125702
366.00	0.029175	0.029709	0.062256	0.092056	0.125305
367.00	0.029175	0.029602	0.062042	0.091492	0.124908
368.00	0.028931	0.029388	0.061920	0.091110	0.124435
369.00	0.028839	0.029282	0.061493	0.090637	0.123917
370.00	0.028824	0.029343	0.061340	0.090240	0.123413
371.00	0.028656	0.028976	0.060883	0.089706	0.122864
372.00	0.028580	0.028931	0.060715	0.089600	0.122635
373.00	0.028351	0.028717	0.060333	0.088943	0.121979
374.00	0.028152	0.028595	0.060104	0.088516	0.121475
375.00	0.028259	0.028519	0.059952	0.088364	0.121231
376.00	0.028198	0.028503	0.059845	0.088104	0.120850
377.00	0.027969	0.028351	0.059479	0.087540	0.120300
378.00	0.027832	0.028168	0.059280	0.087326	0.119949
379.00	0.027649	0.027954	0.059128	0.086792	0.119553
380.00	0.027359	0.027817	0.058792	0.086319	0.119095
381.00	0.027237	0.027634	0.058685	0.086075	0.118835
382.00	0.027176	0.027542	0.058472	0.085831	0.118561
383.00	0.026779	0.027191	0.058411	0.085449	0.118271
384.00	0.026642	0.026840	0.058105	0.084900	0.117783
385.00	0.026352	0.026596	0.057907	0.084457	0.117447
386.00	0.026138	0.026260	0.057831	0.084076	0.117126
387.00	0.025848	0.026016	0.057724	0.083694	0.116898
388.00	0.025726	0.025925	0.057648	0.083206	0.116684
389.00	0.025284	0.025467	0.057388	0.082657	0.116272
390.00	0.024857	0.025055	0.057190	0.082016	0.115891
391.00	0.024506	0.024673	0.057098	0.081604	0.115707
392.00	0.024078	0.024368	0.056961	0.081100	0.115402
393.00	0.023788	0.023911	0.056885	0.080582	0.115112
394.00	0.023376	0.023483	0.056717	0.079941	0.114822
395.00	0.022858	0.023010	0.056625	0.079376	0.114532
396.00	0.022507	0.022629	0.056427	0.078888	0.114288
397.00	0.022034	0.022079	0.056259	0.078293	0.113907
398.00	0.021515	0.021576	0.056122	0.077637	0.113632
399.00	0.021149	0.021210	0.055984	0.077072	0.113388
400.00	0.020782	0.020874	0.055969	0.076645	0.113220
401.00	0.020203	0.020386	0.055801	0.075958	0.112839
402.00	0.019745	0.019928	0.055603	0.075394	0.112579
403.00	0.019211	0.019424	0.055435	0.074783	0.112289
404.00	0.018677	0.018936	0.055237	0.074112	0.111938
405.00	0.018280	0.018448	0.055206	0.073639	0.111801
406.00	0.017822	0.018021	0.054993	0.073013	0.111496
407.00	0.017456	0.017639	0.054932	0.072540	0.111267
408.00	0.017014	0.017242	0.054810	0.072037	0.111084
409.00	0.016541	0.016861	0.054672	0.071548	0.110870
410.00	0.016205	0.016403	0.054657	0.071060	0.110626
411.00	0.015839	0.016098	0.054489	0.070572	0.110443
412.00	0.015488	0.015701	0.054459	0.070145	0.110214
413.00	0.015076	0.015305	0.054321	0.069626	0.109940
414.00	0.014877	0.015106	0.054306	0.069321	0.109818
415.00	0.014542	0.014755	0.054153	0.068893	0.109634
416.00	0.014221	0.014420	0.054031	0.068436	0.109360
417.00	0.013977	0.014191	0.053970	0.068100	0.109116
418.00	0.013687	0.013885	0.053864	0.067734	0.108856
419.00	0.013458	0.013687	0.053787	0.067444	0.108673
420.00	0.013138	0.013428	0.053589	0.066986	0.108398
421.00	0.013107	0.013397	0.053696	0.066833	0.108368
422.00	0.012939	0.013214	0.053635	0.066681	0.108185
423.00	0.012650	0.012924	0.053406	0.066269	0.107834
424.00	0.012527	0.012772	0.053345	0.066116	0.107712
425.00	0.012421	0.012695	0.053329	0.065887	0.107513
426.00	0.012329	0.012558	0.053207	0.065720	0.107300
427.00	0.012222	0.012497	0.053040	0.065521	0.107101
428.00	0.012238	0.012512	0.053040	0.065475	0.107040
429.00	0.012192	0.012421	0.053009	0.065292	0.106750
430.00	0.012177	0.012360	0.052780	0.065186	0.106506
431.00	0.012146	0.012436	0.052673	0.065140	0.106400
432.00	0.012268	0.012466	0.052643	0.065155	0.106186
433.00	0.012283	0.012451	0.052521	0.065079	0.105972
434.00	0.012421	0.012558	0.052429	0.065109	0.105835
435.00	0.012573	0.012787	0.052475	0.065186	0.105774
436.00	0.012756	0.012909	0.052444	0.065262	0.105560
437.00	0.012939	0.013062	0.052383	0.065384	0.105438
438.00	0.013199	0.013290	0.052399	0.065536	0.105362
439.00	0.013321	0.013397	0.052155	0.065536	0.105118
440.00	0.013611	0.013702	0.052078	0.065735	0.104950
441.00	0.013855	0.013931	0.052048	0.065933	0.104843
442.00	0.014114	0.014191	0.051971	0.066116	0.104691
443.00	0.014420	0.014481	0.051880	0.066299	0.104492
444.00	0.014694	0.014709	0.051743	0.066483	0.104294
445.00	0.014999	0.015045	0.051636	0.066803	0.104111
446.00	0.015594	0.015625	0.051804	0.067291	0.104141
447.00	0.015869	0.015793	0.051575	0.067444	0.103851
448.00	0.016342	0.016190	0.051514	0.067825	0.103699
449.00	0.016937	0.016815	0.051590	0.068298	0.103683
450.00	0.017380	0.017303	0.051514	0.068634	0.103516
451.00	0.017792	0.017609	0.051331	0.068970	0.103302
452.00	0.018326	0.018082	0.051254	0.069397	0.103180
453.00	0.018921	0.018646	0.051208	0.069839	0.103027
454.00	0.019547	0.019196	0.051178	0.070374	0.102982
455.00	0.020081	0.019669	0.051117	0.070831	0.102753
456.00	0.020676	0.020264	0.050995	0.071335	0.102585
457.00	0.021317	0.020889	0.050980	0.071899	0.102463
458.00	0.022034	0.021576	0.050964	0.072525	0.102432
459.00	0.022720	0.022278	0.050980	0.073120	0.102310
460.00	0.023438	0.022888	0.050827	0.073761	0.102127
461.00	0.024261	0.023636	0.050873	0.074402	0.102081
462.00	0.025055	0.024353	0.050720	0.075027	0.101974
463.00	0.025787	0.025024	0.050613	0.075714	0.101761
464.00	0.026733	0.025894	0.050644	0.076523	0.101700
465.00	0.027557	0.026672	0.050507	0.077255	0.101563
466.00	0.028534	0.027573	0.050507	0.078110	0.101501
467.00	0.029480	0.028458	0.050507	0.078964	0.101379
468.00	0.030533	0.029434	0.050446	0.079773	0.101257
469.00	0.031448	0.030304	0.050278	0.080612	0.101074
470.00	0.032562	0.031342	0.050323	0.081680	0.100952
471.00	0.033630	0.032333	0.050262	0.082642	0.100845
472.00	0.034851	0.033401	0.050217	0.083710	0.100800
473.00	0.035980	0.034500	0.050201	0.084702	0.100693
474.00	0.037094	0.035614	0.050156	0.085754	0.100601
475.00	0.038422	0.036789	0.050018	0.086868	0.100449
476.00	0.039734	0.038040	0.050049	0.088058	0.100388
477.00	0.041077	0.039276	0.050018	0.089279	0.100250
478.00	0.042435	0.040482	0.049896	0.090485	0.100159
479.00	0.043900	0.041794	0.049957	0.091782	0.100067
480.00	0.045334	0.043137	0.049881	0.093079	0.099915
481.00	0.046692	0.044418	0.049774	0.094284	0.099823
482.00	0.048279	0.045914	0.049805	0.095688	0.099762
483.00	0.049866	0.047348	0.049759	0.097168	0.099655
484.00	0.051407	0.048767	0.049698	0.098587	0.099533
485.00	0.052902	0.050293	0.049545	0.099945	0.099350
486.00	0.054535	0.051743	0.049423	0.101440	0.099167
487.00	0.056274	0.053421	0.049347	0.102997	0.099091
488.00	0.058090	0.055038	0.049316	0.104599	0.098984
489.00	0.060074	0.056824	0.049347	0.106384	0.098999
490.00	0.061981	0.058640	0.049286	0.108170	0.098953
491.00	0.063904	0.060379	0.049271	0.109848	0.098831
492.00	0.065842	0.062119	0.049255	0.111618	0.098724
493.00	0.067886	0.064102	0.049149	0.113495	0.098572
494.00	0.069885	0.065979	0.049133	0.115341	0.098465
495.00	0.072037	0.067993	0.048981	0.117340	0.098343
496.00	0.074295	0.070084	0.048996	0.119400	0.098373
497.00	0.076523	0.072113	0.049026	0.121445	0.098343
498.00	0.078781	0.074280	0.048935	0.123444	0.098206
499.00	0.081131	0.076431	0.048920	0.125565	0.098114
500.00	0.083542	0.078537	0.048920	0.127716	0.098068
501.00	0.085892	0.080750	0.048859	0.129868	0.097946
502.00	0.088318	0.083023	0.048874	0.132111	0.097931
503.00	0.090866	0.085388	0.048935	0.134445	0.097916
504.00	0.093430	0.087692	0.048859	0.136765	0.097824
505.00	0.095993	0.090057	0.048828	0.139191	0.097794
506.00	0.098663	0.092484	0.048828	0.141556	0.097763
507.00	0.101196	0.094849	0.048706	0.143829	0.097641
508.00	0.103973	0.097397	0.048752	0.146332	0.097656
509.00	0.106583	0.099762	0.048721	0.148773	0.097565
510.00	0.109344	0.102371	0.048721	0.151306	0.097580
511.00	0.112106	0.104919	0.048569	0.153900	0.097412
512.00	0.115143	0.107697	0.048645	0.156662	0.097458
513.00	0.118134	0.110413	0.048706	0.159409	0.097473
514.00	0.121140	0.113159	0.048752	0.162109	0.097519
515.00	0.124130	0.115997	0.048676	0.164871	0.097397
516.00	0.127136	0.118759	0.048584	0.167587	0.097275
517.00	0.130310	0.121704	0.048569	0.170547	0.097244
518.00	0.133408	0.124588	0.048569	0.173370	0.097244
519.00	0.136581	0.127533	0.048523	0.176346	0.097153
520.00	0.139816	0.130463	0.048569	0.179321	0.097137
521.00	0.143005	0.133362	0.048477	0.182205	0.097107
522.00	0.146149	0.136200	0.048386	0.185028	0.097000
523.00	0.149582	0.139343	0.048401	0.188171	0.097031
524.00	0.153046	0.142563	0.048492	0.191330	0.097122
525.00	0.156311	0.145615	0.048401	0.194351	0.097031
526.00	0.159775	0.148819	0.048386	0.197571	0.097031
527.00	0.163132	0.151917	0.048325	0.200653	0.096970
528.00	0.166550	0.155090	0.048355	0.203796	0.096954
529.00	0.170044	0.158234	0.048309	0.206985	0.096893
530.00	0.173401	0.161301	0.048279	0.210068	0.096924
531.00	0.176895	0.164520	0.048264	0.213287	0.096893
532.00	0.180206	0.167526	0.048248	0.216278	0.096832
533.00	0.183701	0.170746	0.048248	0.219528	0.096878
534.00	0.187088	0.173889	0.048203	0.222580	0.096817
535.00	0.190521	0.177155	0.048203	0.225769	0.096848
536.00	0.193787	0.180176	0.048050	0.228806	0.096649
537.00	0.197311	0.183380	0.048035	0.232040	0.096497
538.00	0.200943	0.186630	0.048035	0.235336	0.096512
539.00	0.204453	0.189789	0.048080	0.238617	0.096558
540.00	0.208023	0.193130	0.048080	0.241943	0.096619
541.00	0.211624	0.196396	0.048096	0.245255	0.096619
542.00	0.215149	0.199661	0.048050	0.248459	0.096603
543.00	0.218597	0.202881	0.047974	0.251556	0.096527
544.00	0.222137	0.206146	0.047974	0.254807	0.096481
545.00	0.225586	0.209274	0.047989	0.258011	0.096619
546.00	0.229172	0.212601	0.048111	0.261337	0.096695
547.00	0.232559	0.215744	0.048019	0.264496	0.096664
548.00	0.235992	0.218918	0.048019	0.267654	0.096664
549.00	0.239319	0.222000	0.047943	0.270737	0.096664
550.00	0.242584	0.225082	0.047974	0.273788	0.096664
551.00	0.245911	0.228226	0.047913	0.276810	0.096634
552.00	0.249054	0.231155	0.047913	0.279755	0.096649
553.00	0.252380	0.234146	0.047958	0.282776	0.096695
554.00	0.255447	0.237015	0.047913	0.285660	0.096649
555.00	0.258621	0.239853	0.047897	0.288605	0.096619
556.00	0.261673	0.242599	0.047867	0.291382	0.096695
557.00	0.264633	0.245346	0.047852	0.294098	0.096695
558.00	0.267548	0.248108	0.047867	0.296768	0.096710
559.00	0.270401	0.250748	0.047775	0.299438	0.096664
560.00	0.273193	0.253387	0.047821	0.302048	0.096710
561.00	0.276016	0.256042	0.047852	0.304642	0.096741
562.00	0.278687	0.258514	0.047836	0.307205	0.096786
563.00	0.281433	0.261002	0.047791	0.309631	0.096786
564.00	0.283813	0.263214	0.047745	0.311905	0.096741
565.00	0.286438	0.265640	0.047760	0.314285	0.096756
566.00	0.288940	0.267929	0.047760	0.316574	0.096802
567.00	0.291412	0.270203	0.047852	0.318848	0.096924
568.00	0.293716	0.272308	0.047852	0.320938	0.096939
569.00	0.295868	0.274292	0.047775	0.322937	0.096954
570.00	0.297989	0.276215	0.047729	0.324875	0.096924
571.00	0.300034	0.278046	0.047836	0.326736	0.097000
572.00	0.301956	0.279800	0.047729	0.328445	0.096924
573.00	0.303818	0.281494	0.047699	0.330124	0.096893
574.00	0.305649	0.283157	0.047653	0.331818	0.096878
575.00	0.307449	0.284805	0.047729	0.333405	0.096970
576.00	0.309097	0.286270	0.047714	0.334885	0.096939
577.00	0.310623	0.287720	0.047745	0.336319	0.097000
578.00	0.312088	0.288971	0.047729	0.337540	0.096985
579.00	0.313461	0.290115	0.047668	0.338745	0.096939
580.00	0.314850	0.291306	0.047729	0.339981	0.097046
581.00	0.316040	0.292313	0.047684	0.341034	0.097000
582.00	0.317184	0.293350	0.047699	0.342026	0.096985
583.00	0.318298	0.294235	0.047623	0.342941	0.097000
584.00	0.319321	0.295120	0.047699	0.343842	0.097015
585.00	0.320297	0.295959	0.047760	0.344696	0.097031
586.00	0.321243	0.296738	0.047714	0.345444	0.097031
587.00	0.322128	0.297440	0.047760	0.346176	0.097076
588.00	0.322906	0.298080	0.047775	0.346802	0.097076
589.00	0.323563	0.298553	0.047775	0.347321	0.097107
590.00	0.324188	0.299011	0.047806	0.347763	0.097122
591.00	0.324707	0.299438	0.047836	0.348190	0.097092
592.00	0.325165	0.299713	0.047867	0.348480	0.097092
593.00	0.325455	0.299896	0.047760	0.348648	0.097092
594.00	0.325745	0.300049	0.047836	0.348846	0.097092
595.00	0.325943	0.300110	0.047882	0.348923	0.097076
596.00	0.325974	0.300049	0.047867	0.348907	0.097076
597.00	0.325836	0.299835	0.047897	0.348740	0.097015
598.00	0.325714	0.299652	0.047974	0.348526	0.097031
599.00	0.325470	0.299286	0.048019	0.348236	0.097046
600.00	0.324997	0.298752	0.047989	0.347748	0.097000
601.00	0.324554	0.298172	0.048019	0.347214	0.096985
602.00	0.323898	0.297470	0.048050	0.346542	0.096985
603.00	0.322952	0.296555	0.047897	0.345612	0.096848
604.00	0.322098	0.295670	0.047989	0.344711	0.096863
605.00	0.321106	0.294662	0.048050	0.343719	0.096909
606.00	0.319931	0.293488	0.048065	0.342529	0.096878
607.00	0.318558	0.292160	0.048065	0.341141	0.096863
608.00	0.316910	0.290527	0.047958	0.339508	0.096741
609.00	0.315231	0.288895	0.047974	0.337875	0.096710
610.00	0.313324	0.287094	0.047958	0.336044	0.096725
611.00	0.311234	0.285110	0.047928	0.334030	0.096664
612.00	0.309143	0.283096	0.047882	0.331970	0.096649
613.00	0.306717	0.280853	0.047897	0.329681	0.096664
614.00	0.303925	0.278214	0.047867	0.327072	0.096542
615.00	0.301178	0.275696	0.047943	0.324478	0.096542
616.00	0.298248	0.272949	0.047913	0.321701	0.096527
617.00	0.295059	0.269958	0.047867	0.318695	0.096451
618.00	0.291733	0.266815	0.047806	0.315536	0.096375
619.00	0.288284	0.263580	0.047729	0.312256	0.096298
620.00	0.284607	0.260132	0.047775	0.308838	0.096283
621.00	0.280701	0.256638	0.047714	0.305191	0.096207
622.00	0.276764	0.252945	0.047729	0.301498	0.096176
623.00	0.272430	0.248917	0.047684	0.297455	0.096100
624.00	0.268005	0.244827	0.047653	0.293304	0.096054
625.00	0.263580	0.240707	0.047607	0.289200	0.095993
626.00	0.259003	0.236465	0.047546	0.285004	0.095932
627.00	0.254227	0.232117	0.047501	0.280609	0.095779
628.00	0.249680	0.227966	0.047562	0.276413	0.095749
629.00	0.244812	0.223572	0.047516	0.271896	0.095688
630.00	0.239578	0.218857	0.047501	0.267120	0.095657
631.00	0.234482	0.214233	0.047440	0.262360	0.095566
632.00	0.229462	0.209641	0.047424	0.257721	0.095551
633.00	0.224167	0.204773	0.047440	0.252853	0.095413
634.00	0.218842	0.199722	0.047333	0.247849	0.095291
635.00	0.213547	0.194855	0.047272	0.242996	0.095169
636.00	0.208145	0.189972	0.047272	0.237991	0.095139
637.00	0.202377	0.184875	0.047150	0.232697	0.095001
638.00	0.196915	0.179947	0.047104	0.227692	0.094971
639.00	0.191284	0.174835	0.047028	0.222488	0.094772
640.00	0.185684	0.169632	0.046982	0.217270	0.094635
641.00	0.180359	0.164688	0.046967	0.212311	0.094589
642.00	0.175049	0.159836	0.047028	0.207474	0.094559
643.00	0.169418	0.154678	0.046875	0.202301	0.094345
644.00	0.163986	0.149780	0.046753	0.197372	0.094208
645.00	0.158630	0.145035	0.046753	0.192490	0.094147
646.00	0.153259	0.140259	0.046707	0.187622	0.094040
647.00	0.148132	0.135513	0.046707	0.182846	0.093933
648.00	0.142975	0.130890	0.046600	0.178146	0.093750
649.00	0.137878	0.126251	0.046570	0.173462	0.093674
650.00	0.133011	0.121841	0.046585	0.169037	0.093567
651.00	0.128342	0.117508	0.046616	0.164749	0.093567
652.00	0.123611	0.113266	0.046539	0.160385	0.093414
653.00	0.118958	0.109116	0.046494	0.156113	0.093262
654.00	0.114517	0.105118	0.046524	0.152084	0.093231
655.00	0.110092	0.101089	0.046616	0.148087	0.093170
656.00	0.105637	0.097076	0.046585	0.144089	0.093079
657.00	0.101471	0.093201	0.046570	0.140228	0.092972
658.00	0.097351	0.089432	0.046585	0.136414	0.092911
659.00	0.093384	0.085831	0.046570	0.132858	0.092819
660.00	0.089554	0.082367	0.046646	0.129333	0.092697
661.00	0.085587	0.078873	0.046600	0.125763	0.092621
662.00	0.081818	0.075424	0.046539	0.122299	0.092484
663.00	0.078156	0.072113	0.046463	0.118988	0.092331
664.00	0.074692	0.068985	0.046402	0.115723	0.092209
665.00	0.071426	0.065994	0.046432	0.112747	0.092133
666.00	0.068253	0.062988	0.046310	0.109772	0.091980
667.00	0.065186	0.060196	0.046341	0.106918	0.091873
668.00	0.062103	0.057434	0.046295	0.104111	0.091797
669.00	0.059235	0.054840	0.046219	0.101471	0.091614
670.00	0.056488	0.052353	0.046249	0.098969	0.091568
671.00	0.053818	0.049942	0.046265	0.096497	0.091461
672.00	0.051224	0.047577	0.046173	0.094116	0.091278
673.00	0.048813	0.045364	0.046143	0.091812	0.091187
674.00	0.046539	0.043335	0.046204	0.089798	0.091217
675.00	0.044464	0.041382	0.046158	0.087860	0.091064
676.00	0.042450	0.039551	0.046158	0.085983	0.090958
677.00	0.040344	0.037643	0.046051	0.084061	0.090836
678.00	0.038483	0.035934	0.046066	0.082321	0.090744
679.00	0.036743	0.034393	0.046112	0.080780	0.090668
680.00	0.034973	0.032776	0.046021	0.079132	0.090515
681.00	0.033249	0.031219	0.046036	0.077560	0.090393
682.00	0.031784	0.029892	0.046066	0.076218	0.090302
683.00	0.030289	0.028519	0.046066	0.074844	0.090240
684.00	0.028793	0.027100	0.046021	0.073425	0.090118
685.00	0.027405	0.025879	0.045959	0.072128	0.089996
686.00	0.026123	0.024719	0.045975	0.070938	0.089874
687.00	0.024887	0.023651	0.046021	0.069839	0.089813
688.00	0.023666	0.022537	0.045975	0.068710	0.089645
689.00	0.022614	0.021515	0.045959	0.067764	0.089523
690.00	0.021545	0.020569	0.046005	0.066772	0.089447
691.00	0.020599	0.019714	0.046051	0.065933	0.089417
692.00	0.019638	0.018845	0.046021	0.065063	0.089233
693.00	0.018784	0.018051	0.046097	0.064316	0.089142
694.00	0.017960	0.017319	0.046127	0.063553	0.089096
695.00	0.017120	0.016510	0.046036	0.062759	0.088959
696.00	0.016373	0.015839	0.046082	0.062088	0.088837
697.00	0.015625	0.015152	0.046097	0.061417	0.088730
698.00	0.014969	0.014587	0.046173	0.060898	0.088669
699.00	0.014359	0.014008	0.046188	0.060440	0.088593
700.00	0.013763	0.013474	0.046265	0.059937	0.088470
701.00	0.013214	0.012970	0.046310	0.059464	0.088394
702.00	0.012650	0.012466	0.046341	0.058975	0.088287
703.00	0.012085	0.011948	0.046356	0.058517	0.088181
704.00	0.011627	0.011505	0.046463	0.058151	0.088104
705.00	0.011185	0.011108	0.046555	0.057800	0.088013
706.00	0.010742	0.010712	0.046600	0.057480	0.087967
707.00	0.010315	0.010300	0.046661	0.057175	0.087875
708.00	0.009949	0.009964	0.046768	0.056915	0.087830
709.00	0.009537	0.009583	0.046890	0.056656	0.087708
710.00	0.009186	0.009277	0.046967	0.056427	0.087616
711.00	0.008820	0.008942	0.047058	0.056213	0.087509
712.00	0.008545	0.008652	0.047226	0.056107	0.087479
713.00	0.008255	0.008392	0.047363	0.055984	0.087448
714.00	0.007950	0.008102	0.047562	0.055878	0.087372
715.00	0.007660	0.007889	0.047745	0.055771	0.087311
716.00	0.007431	0.007660	0.047989	0.055771	0.087280
717.00	0.007172	0.007416	0.048172	0.055710	0.087219
718.00	0.006927	0.007187	0.048386	0.055725	0.087143
719.00	0.006744	0.007034	0.048660	0.055786	0.087158
720.00	0.006546	0.006821	0.048889	0.055847	0.087112
721.00	0.006256	0.006607	0.049088	0.055847	0.087021
722.00	0.006165	0.006485	0.049362	0.055969	0.087051
723.00	0.005997	0.006302	0.049622	0.056030	0.086990
724.00	0.005783	0.006134	0.049866	0.056152	0.086929
725.00	0.005600	0.005966	0.050125	0.056274	0.086884
726.00	0.005478	0.005859	0.050507	0.056458	0.086868
727.00	0.005325	0.005692	0.050842	0.056641	0.086807
728.00	0.005173	0.005600	0.051208	0.056870	0.086746
729.00	0.005066	0.005478	0.051620	0.057205	0.086716
730.00	0.004990	0.005341	0.052124	0.057571	0.086685
731.00	0.004868	0.005249	0.052643	0.057999	0.086639
732.00	0.004761	0.005157	0.053162	0.058380	0.086594
733.00	0.004578	0.005005	0.053604	0.058701	0.086472
734.00	0.004456	0.004883	0.054016	0.059036	0.086411
735.00	0.004333	0.004745	0.054337	0.059235	0.086304
736.00	0.004257	0.004715	0.054657	0.059479	0.086243
737.00	0.004166	0.004639	0.054901	0.059677	0.086182
738.00	0.004074	0.004517	0.055069	0.059769	0.086105
739.00	0.004028	0.004471	0.055206	0.059830	0.086075
740.00	0.003937	0.004364	0.055283	0.059769	0.085938
741.00	0.003815	0.004272	0.055252	0.059692	0.085846
742.00	0.003784	0.004242	0.055313	0.059662	0.085800
743.00	0.003693	0.004150	0.055267	0.059586	0.085663
744.00	0.003632	0.004089	0.055267	0.059479	0.085587
745.00	0.003525	0.003952	0.055161	0.059296	0.085449
746.00	0.003494	0.003937	0.055176	0.059280	0.085373
747.00	0.003448	0.003937	0.055145	0.059235	0.085297
748.00	0.003387	0.003860	0.055115	0.059158	0.085251
749.00	0.003326	0.003784	0.055069	0.059052	0.085159
750.00	0.003311	0.003769	0.055069	0.058990	0.085114
751.00	0.003250	0.003738	0.055038	0.058929	0.084991
752.00	0.003174	0.003662	0.054947	0.058792	0.084885
753.00	0.003143	0.003662	0.054962	0.058746	0.084869
754.00	0.003113	0.003632	0.054932	0.058701	0.084808
755.00	0.003098	0.003586	0.054916	0.058609	0.084732
756.00	0.003098	0.003571	0.054916	0.058563	0.084686
757.00	0.003067	0.003525	0.054901	0.058517	0.084656
758.00	0.002975	0.003464	0.054794	0.058395	0.084534
759.00	0.002914	0.003403	0.054749	0.058304	0.084503
760.00	0.002869	0.003342	0.054688	0.058197	0.084381
761.00	0.002899	0.003342	0.054718	0.058212	0.084305
762.00	0.002899	0.003326	0.054718	0.058182	0.084290
763.00	0.002853	0.003281	0.054657	0.058090	0.084213
764.00	0.002869	0.003265	0.054626	0.058044	0.084213
765.00	0.002823	0.003250	0.054596	0.057953	0.084152
766.00	0.002777	0.003174	0.054520	0.057861	0.084076
767.00	0.002747	0.003204	0.054489	0.057831	0.084076
768.00	0.002747	0.003220	0.054489	0.057770	0.084045
769.00	0.002670	0.003082	0.054352	0.057663	0.083939
770.00	0.002655	0.003082	0.054321	0.057571	0.083923
771.00	0.002640	0.003098	0.054306	0.057541	0.083939
772.00	0.002579	0.003067	0.054199	0.057404	0.083862
773.00	0.002625	0.003098	0.054184	0.057358	0.083847
774.00	0.002563	0.003006	0.054062	0.057236	0.083771
775.00	0.002625	0.003082	0.054031	0.057220	0.083817
776.00	0.002563	0.003006	0.053970	0.057083	0.083755
777.00	0.002548	0.002991	0.053894	0.056992	0.083725
778.00	0.002533	0.002975	0.053848	0.056931	0.083664
779.00	0.002533	0.002960	0.053741	0.056808	0.083664
780.00	0.002426	0.002884	0.053604	0.056625	0.083572
781.00	0.002487	0.002945	0.053589	0.056610	0.083618
782.00	0.002457	0.002899	0.053467	0.056488	0.083603
783.00	0.002426	0.002853	0.053360	0.056351	0.083527
784.00	0.002472	0.002853	0.053314	0.056320	0.083557
785.00	0.002457	0.002869	0.053207	0.056213	0.083557
786.00	0.002411	0.002823	0.053085	0.056061	0.083511
787.00	0.002350	0.002777	0.052948	0.055923	0.083466
788.00	0.002396	0.002823	0.052963	0.055862	0.083481
789.00	0.002396	0.002838	0.052856	0.055801	0.083466
790.00	0.002365	0.002777	0.052750	0.055679	0.083435
791.00	0.002350	0.002762	0.052658	0.055573	0.083435
792.00	0.002319	0.002716	0.052505	0.055405	0.083359
793.00	0.002319	0.002731	0.052429	0.055298	0.083328
794.00	0.002258	0.002670	0.052292	0.055176	0.083313
795.00	0.002243	0.002670	0.052185	0.055069	0.083313
796.00	0.002274	0.002686	0.052124	0.054993	0.083282
797.00	0.002258	0.002716	0.052078	0.054901	0.083298
798.00	0.002182	0.002625	0.051926	0.054764	0.083191
799.00	0.002213	0.002655	0.051834	0.054688	0.083191
800.00	0.002289	0.002670	0.051819	0.054642	0.083221
801.00	0.002228	0.002625	0.051712	0.054504	0.083145
802.00	0.002228	0.002625	0.051682	0.054443	0.083176
803.00	0.002258	0.002655	0.051590	0.054413	0.083160
804.00	0.002213	0.002609	0.051514	0.054306	0.083069
805.00	0.002197	0.002594	0.051468	0.054245	0.083023
806.00	0.002228	0.002625	0.051468	0.054230	0.083069
807.00	0.002213	0.002640	0.051453	0.054199	0.083038
808.00	0.002167	0.002563	0.051407	0.054153	0.082993
809.00	0.002167	0.002548	0.051392	0.054138	0.082947
810.00	0.002167	0.002518	0.051407	0.054138	0.082886
811.00	0.002151	0.002533	0.051453	0.054169	0.082886
812.00	0.002151	0.002518	0.051437	0.054153	0.082855
813.00	0.002151	0.002518	0.051483	0.054184	0.082825
814.00	0.002151	0.002533	0.051529	0.054245	0.082779
815.00	0.002151	0.002548	0.051590	0.054291	0.082733
816.00	0.002151	0.002533	0.051651	0.054352	0.082748
817.00	0.002136	0.002502	0.051712	0.054382	0.082672
818.00	0.002090	0.002487	0.051788	0.054443	0.082626
819.00	0.002121	0.002487	0.051880	0.054581	0.082611
820.00	0.002121	0.002472	0.052002	0.054657	0.082596
821.00	0.002136	0.002487	0.052200	0.054855	0.082550
822.00	0.002106	0.002487	0.052414	0.055038	0.082504
823.00	0.002106	0.002487	0.052628	0.055252	0.082535
824.00	0.002075	0.002426	0.052872	0.055496	0.082428
825.00	0.002090	0.002441	0.053238	0.055878	0.082382
826.00	0.002075	0.002426	0.053665	0.056305	0.082367
827.00	0.002075	0.002426	0.054169	0.056763	0.082306
828.00	0.002075	0.002411	0.054688	0.057343	0.082306
829.00	0.002045	0.002396	0.055267	0.057907	0.082230
830.00	0.001999	0.002319	0.055817	0.058411	0.082199
831.00	0.002014	0.002350	0.056381	0.058929	0.082153
832.00	0.001999	0.002304	0.056808	0.059402	0.082108
833.00	0.001999	0.002365	0.057281	0.059830	0.082092
834.00	0.002014	0.002350	0.057617	0.060226	0.082123
835.00	0.001968	0.002335	0.057877	0.060425	0.082047
836.00	0.002014	0.002350	0.058105	0.060669	0.082062
837.00	0.001984	0.002319	0.058289	0.060852	0.082047
838.00	0.002029	0.002350	0.058578	0.061066	0.082077
839.00	0.002014	0.002319	0.058640	0.061188	0.082047
840.00	0.002060	0.002380	0.058838	0.061356	0.082047
841.00	0.002014	0.002335	0.058929	0.061432	0.082001
842.00	0.001953	0.002304	0.059006	0.061493	0.081955
843.00	0.002014	0.002319	0.059158	0.061676	0.081985
844.00	0.002045	0.002335	0.059296	0.061783	0.082031
845.00	0.001968	0.002258	0.059341	0.061844	0.081894
846.00	0.001984	0.002274	0.059525	0.062027	0.081894
847.00	0.001999	0.002274	0.059677	0.062195	0.081955
848.00	0.001968	0.002243	0.059769	0.062302	0.081879
849.00	0.001968	0.002228	0.059952	0.062469	0.081894
850.00	0.002014	0.002289	0.060165	0.062637	0.081970
851.00	0.001953	0.002228	0.060287	0.062729	0.081924
852.00	0.001999	0.002243	0.060471	0.062943	0.081940
853.00	0.002014	0.002304	0.060669	0.063141	0.081985
854.00	0.001953	0.002228	0.060760	0.063217	0.081940
855.00	0.001953	0.002258	0.060913	0.063339	0.081985
856.00	0.001984	0.002258	0.061111	0.063599	0.082092
857.00	0.001923	0.002197	0.061249	0.063721	0.082092
858.00	0.001953	0.002182	0.061432	0.063919	0.082214
859.00	0.001938	0.002182	0.061615	0.064056	0.082169
860.00	0.001968	0.002197	0.061859	0.064270	0.082306
861.00	0.001831	0.002060	0.061920	0.064392	0.082230
862.00	0.001923	0.002151	0.062225	0.064636	0.082382
863.00	0.001907	0.002106	0.062393	0.064743	0.082397
864.00	0.001953	0.002167	0.062592	0.065018	0.082550
865.00	0.001877	0.002121	0.062729	0.065125	0.082504
866.00	0.001938	0.002167	0.063019	0.065445	0.082672
867.00	0.001907	0.002151	0.063217	0.065643	0.082718
868.00	0.001862	0.002121	0.063446	0.065857	0.082764
869.00	0.001862	0.002075	0.063705	0.066071	0.082779
870.00	0.001968	0.002182	0.064072	0.066437	0.082947
871.00	0.001862	0.002106	0.064285	0.066650	0.082993
872.00	0.001892	0.002121	0.064590	0.066940	0.083099
873.00	0.001831	0.002060	0.064835	0.067215	0.083145
874.00	0.001846	0.002106	0.065186	0.067566	0.083313
875.00	0.001953	0.002136	0.065598	0.067932	0.083466
876.00	0.001862	0.002045	0.065796	0.068207	0.083511
877.00	0.001907	0.002090	0.066284	0.068634	0.083679
878.00	0.001938	0.002121	0.066772	0.069077	0.083893
879.00	0.001877	0.002090	0.067184	0.069489	0.084030
880.00	0.001801	0.001999	0.067566	0.069885	0.084229
881.00	0.001816	0.001999	0.068100	0.070419	0.084503
882.00	0.001801	0.001999	0.068665	0.070969	0.084778
883.00	0.001831	0.002045	0.069290	0.071533	0.085114
884.00	0.001816	0.001984	0.069855	0.072159	0.085464
885.00	0.001816	0.001953	0.070465	0.072708	0.085785
886.00	0.001755	0.001907	0.070984	0.073257	0.086044
887.00	0.001785	0.001938	0.071625	0.073853	0.086395
888.00	0.001816	0.001938	0.072128	0.074402	0.086670
889.00	0.001801	0.001938	0.072693	0.074905	0.086990
890.00	0.001785	0.001923	0.073166	0.075394	0.087173
891.00	0.001755	0.001907	0.073547	0.075775	0.087265
892.00	0.001755	0.001877	0.073929	0.076111	0.087387
893.00	0.001709	0.001846	0.074280	0.076447	0.087509
894.00	0.001770	0.001877	0.074707	0.076859	0.087692
895.00	0.001740	0.001862	0.075089	0.077240	0.087784
896.00	0.001740	0.001846	0.075409	0.077576	0.087936
897.00	0.001770	0.001862	0.075699	0.077927	0.087921
898.00	0.001770	0.001892	0.075958	0.078125	0.087936
899.00	0.001724	0.001846	0.076126	0.078293	0.087830
900.00	0.001709	0.001862	0.076248	0.078430	0.087677
901.00	0.001663	0.001801	0.076279	0.078384	0.087418
902.00	0.001663	0.001755	0.076324	0.078415	0.087234
903.00	0.001572	0.001709	0.076294	0.078400	0.086899
904.00	0.001648	0.001724	0.076401	0.078506	0.086700
905.00	0.001648	0.001755	0.076462	0.078583	0.086502
906.00	0.001617	0.001755	0.076431	0.078613	0.086136
907.00	0.001587	0.001724	0.076477	0.078583	0.085815
908.00	0.001633	0.001740	0.076569	0.078644	0.085464
909.00	0.001678	0.001770	0.076645	0.078812	0.085220
910.00	0.001648	0.001740	0.076736	0.078873	0.084915
911.00	0.001678	0.001801	0.076981	0.079086	0.084717
912.00	0.001724	0.001816	0.077148	0.079330	0.084457
913.00	0.001648	0.001740	0.077286	0.079437	0.084045
914.00	0.001648	0.001740	0.077545	0.079727	0.083740
915.00	0.001648	0.001709	0.077820	0.080017	0.083374
916.00	0.001602	0.001648	0.078232	0.080383	0.083008
917.00	0.001602	0.001663	0.078751	0.080872	0.082718
918.00	0.001587	0.001633	0.079315	0.081421	0.082443
919.00	0.001663	0.001694	0.080109	0.082199	0.082306
920.00	0.001724	0.001724	0.080902	0.083038	0.082123
921.00	0.001709	0.001770	0.081848	0.083984	0.081985
922.00	0.001678	0.001755	0.082825	0.084930	0.081741
923.00	0.001724	0.001740	0.083984	0.086060	0.081619
924.00	0.001678	0.001694	0.085236	0.087341	0.081482
925.00	0.001541	0.001587	0.086578	0.088654	0.081146
926.00	0.001541	0.001572	0.088135	0.090225	0.081055
927.00	0.001602	0.001663	0.089844	0.091995	0.081009
928.00	0.001678	0.001694	0.091705	0.093872	0.080917
929.00	0.001724	0.001740	0.093796	0.096024	0.080933
930.00	0.001678	0.001755	0.095810	0.097946	0.080841
931.00	0.001465	0.001480	0.097794	0.099869	0.080490
932.00	0.001343	0.001389	0.100113	0.102188	0.080307
933.00	0.001389	0.001373	0.102615	0.104675	0.080215
934.00	0.001556	0.001526	0.105240	0.107407	0.080292
935.00	0.001633	0.001602	0.108093	0.110260	0.080276
936.00	0.001709	0.001678	0.110977	0.113144	0.080246
937.00	0.001633	0.001602	0.113800	0.115952	0.080154
938.00	0.001556	0.001541	0.116852	0.118988	0.079971
939.00	0.001480	0.001434	0.119965	0.122055	0.079849
940.00	0.001511	0.001480	0.123306	0.125366	0.079803
941.00	0.001678	0.001663	0.127106	0.129166	0.079956
942.00	0.001678	0.001663	0.130722	0.132797	0.079956
943.00	0.001587	0.001572	0.134476	0.136536	0.079834
944.00	0.001480	0.001419	0.138458	0.140564	0.079666
945.00	0.001434	0.001389	0.142609	0.144699	0.079651
946.00	0.001556	0.001526	0.147217	0.149414	0.079742
947.00	0.001511	0.001434	0.152328	0.154541	0.079651
948.00	0.001480	0.001419	0.157578	0.159744	0.079697
949.00	0.001678	0.001587	0.163513	0.165695	0.079849
950.00	0.001480	0.001404	0.170013	0.172226	0.079712
951.00	0.001450	0.001343	0.176987	0.179031	0.079697
952.00	0.001633	0.001495	0.184647	0.186737	0.079956
953.00	0.001556	0.001495	0.192352	0.194489	0.079941
954.00	0.001480	0.001373	0.199829	0.201920	0.079941
955.00	0.001450	0.001312	0.207321	0.209427	0.079971
956.00	0.001541	0.001450	0.214310	0.216354	0.080124
957.00	0.001511	0.001373	0.220444	0.222534	0.080139
958.00	0.001480	0.001328	0.225983	0.228043	0.080109
959.00	0.001480	0.001312	0.230637	0.232681	0.080200
960.00	0.001434	0.001251	0.234406	0.236542	0.080261
961.00	0.001434	0.001251	0.237610	0.239807	0.080276
962.00	0.001419	0.001251	0.240204	0.242294	0.080322
963.00	0.001328	0.001175	0.242233	0.244308	0.080246
964.00	0.001511	0.001328	0.244141	0.246216	0.080505
965.00	0.001404	0.001236	0.245514	0.247528	0.080429
966.00	0.001511	0.001343	0.246857	0.248871	0.080582
967.00	0.001389	0.001190	0.247803	0.249863	0.080551
968.00	0.001541	0.001358	0.248932	0.250961	0.080719
969.00	0.001419	0.001251	0.249619	0.251709	0.080688
970.00	0.001602	0.001434	0.250595	0.252686	0.081009
971.00	0.001419	0.001282	0.251114	0.253204	0.080887
972.00	0.001511	0.001328	0.251724	0.253815	0.080994
973.00	0.001526	0.001297	0.252213	0.254303	0.081070
974.00	0.001724	0.001465	0.252823	0.254913	0.081406
975.00	0.001633	0.001389	0.252945	0.255051	0.081345
976.00	0.001404	0.001221	0.252869	0.254913	0.081223
977.00	0.001694	0.001526	0.253113	0.255203	0.081619
978.00	0.001495	0.001358	0.252716	0.254822	0.081589
979.00	0.001678	0.001541	0.252548	0.254654	0.081894
980.00	0.001602	0.001404	0.251923	0.254044	0.081879
981.00	0.001755	0.001572	0.251495	0.253571	0.082184
982.00	0.001617	0.001465	0.250580	0.252670	0.082199
983.00	0.001831	0.001633	0.249847	0.251923	0.082474
984.00	0.001709	0.001495	0.248688	0.250824	0.082474
985.00	0.001862	0.001633	0.247650	0.249741	0.082672
986.00	0.001694	0.001511	0.246292	0.248352	0.082672
987.00	0.001709	0.001587	0.245041	0.247116	0.082794
988.00	0.001678	0.001572	0.243484	0.245651	0.082809
989.00	0.001801	0.001648	0.242065	0.244217	0.082947
990.00	0.001816	0.001663	0.240479	0.242691	0.082962
991.00	0.001755	0.001633	0.238785	0.240845	0.082932
992.00	0.001831	0.001709	0.237106	0.239120	0.083099
993.00	0.001785	0.001678	0.235245	0.237427	0.083191
994.00	0.001785	0.001617	0.233322	0.235504	0.083267
995.00	0.001694	0.001541	0.231400	0.233582	0.083389
996.00	0.001770	0.001633	0.229645	0.231796	0.083633
997.00	0.001892	0.001816	0.227829	0.229980	0.083939
998.00	0.001740	0.001633	0.225708	0.227829	0.083954
999.00	0.001694	0.001648	0.223602	0.225723	0.084076
1000.00	0.001724	0.001678	0.221725	0.223846	0.084198
