Tiempo [min]	Absorbancia
0	1.472
5	1.416
10	1.362
15	1.293
20	1.252
25	1.202
30	1.161
35	1.118
40	1.048
45	1.000
50	0.950
55	0.923
60	0.888
65	0.856
70	0.816
75	0.769
80	0.741
85	0.713
90	0.677
95	0.651
100	0.628
105	0.587
110	0.557
115	0.536
120	0.507
125	0.489
130	0.456
135	0.441
140	0.404